##TITLE=temp000104
##$NOTE=23.09.2022 13:23:3 ^0 x16 v:1 []
##$ITAB=-1,-1
##FIRSTX=499.643
##DELTAX=1.92912
##NPOINTS=1814
##XUNITS=1/CM
##YUNITS=ABSORBANCE
499.643	0.0184969
501.572	0.0215207
503.501	0.0230225
505.43	0.023976
507.36	0.0277217
509.289	0.0181258
511.218	0.0218977
513.147	0.0312956
515.076	0.0215652
517.005	0.0119004
518.934	0.0108985
520.863	0.0133053
522.792	0.0138312
524.722	0.0126428
526.651	0.0194368
528.58	0.0257949
530.509	0.0227726
532.438	0.0164907
534.367	0.0112765
536.296	0.00980416
538.225	0.012624
540.155	0.0125325
542.084	0.0110391
544.013	0.0151269
545.942	0.0178199
547.871	0.0139387
549.8	0.0108513
551.729	0.0108634
553.658	0.00585961
555.588	-0.00139381
557.517	0.00145565
559.446	0.00612392
561.375	0.00474944
563.304	0.00643447
565.233	0.0091893
567.162	0.00775807
569.091	0.00396891
571.021	0.000505219
572.95	0.00021309
574.879	-1.0781e-005
576.808	-0.00323169
578.737	-0.00483857
580.666	-0.00203933
582.595	0.000141297
584.524	-0.00165097
586.454	-0.00233345
588.383	0.000472017
590.312	0.00109976
592.241	-0.00204836
594.17	-0.0029274
596.099	-0.00142119
598.028	-2.35608e-005
599.957	0.00252141
601.887	0.00380151
603.816	0.00349305
605.745	0.00554084
607.674	0.00784931
609.603	0.00918113
611.532	0.0115798
613.461	0.0111593
615.39	0.00632514
617.32	0.00278262
619.249	0.00147939
621.178	-2.37881e-005
623.107	-0.00113618
625.036	-0.00430254
626.965	-0.0103147
628.894	-0.0149688
630.823	-0.0177966
632.753	-0.0213073
634.682	-0.023329
636.611	-0.0236336
638.54	-0.0265352
640.469	-0.0282728
642.398	-0.0250388
644.327	-0.0227544
646.256	-0.0248859
648.186	-0.0268709
650.115	-0.0258392
652.044	-0.0268061
653.973	-0.0290198
655.902	-0.0268661
657.831	-0.0258308
659.76	-0.0281137
661.689	-0.027625
663.619	-0.0259095
665.548	-0.0261906
667.477	-0.0284535
669.406	-0.0311468
671.335	-0.0315137
673.264	-0.0326957
675.193	-0.0329756
677.122	-0.0302879
679.052	-0.0295967
680.981	-0.031909
682.91	-0.0332018
684.839	-0.0331978
686.768	-0.0327885
688.697	-0.0329757
690.626	-0.0339936
692.555	-0.0350942
694.485	-0.0366428
696.414	-0.0376056
698.343	-0.0372468
700.272	-0.03693
702.201	-0.0378146
704.13	-0.0389645
706.059	-0.0387984
707.988	-0.038678
709.917	-0.0381178
711.847	-0.0357874
713.776	-0.0352181
715.705	-0.0363308
717.634	-0.0358369
719.563	-0.035415
721.492	-0.0356815
723.421	-0.0348322
725.35	-0.0342037
727.28	-0.0344484
729.209	-0.0341249
731.138	-0.0337555
733.067	-0.0337955
734.996	-0.0334557
736.925	-0.0331593
738.854	-0.0331107
740.783	-0.0326846
742.713	-0.0315367
744.642	-0.0307193
746.571	-0.0312971
748.5	-0.0320427
750.429	-0.0325083
752.358	-0.0330294
754.287	-0.0330764
756.216	-0.0332092
758.146	-0.0336141
760.075	-0.0335129
762.004	-0.0329904
763.933	-0.0327256
765.862	-0.0328049
767.791	-0.0322194
769.72	-0.0303616
771.649	-0.0270165
773.579	-0.0220027
775.508	-0.0166865
777.437	-0.0122708
779.366	-0.00780017
781.295	-0.00253834
783.224	0.00243171
785.153	0.00703258
787.082	0.012242
789.012	0.0164103
790.941	0.0187398
792.87	0.0221256
794.799	0.0259705
796.728	0.0276091
798.657	0.0293486
800.586	0.0319511
802.515	0.0330968
804.445	0.0336056
806.374	0.0342554
808.303	0.0341026
810.232	0.0333707
812.161	0.0325959
814.09	0.031597
816.019	0.0303831
817.948	0.0288595
819.878	0.0265272
821.807	0.0233525
823.736	0.0195433
825.665	0.0159995
827.594	0.0132717
829.523	0.0106441
831.452	0.0077921
833.381	0.00418877
835.311	8.95183e-005
837.24	-0.00331646
839.169	-0.00629217
841.098	-0.00932271
843.027	-0.0125369
844.956	-0.0160564
846.885	-0.0198754
848.814	-0.0242275
850.744	-0.0285242
852.673	-0.0319659
854.602	-0.0348429
856.531	-0.0380835
858.46	-0.0421463
860.389	-0.0457947
862.318	-0.0481952
864.247	-0.0505673
866.177	-0.0534518
868.106	-0.0559394
870.035	-0.057245
871.964	-0.0579807
873.893	-0.0594805
875.822	-0.0613102
877.751	-0.0626286
879.68	-0.063471
881.609	-0.0640957
883.539	-0.0654298
885.468	-0.066445
887.397	-0.0658731
889.326	-0.0659754
891.255	-0.0673653
893.184	-0.0683619
895.113	-0.0693034
897.042	-0.0702783
898.972	-0.0705315
900.901	-0.0706143
902.83	-0.0711784
904.759	-0.0716196
906.688	-0.0717547
908.617	-0.0726291
910.546	-0.0739954
912.475	-0.07504
914.405	-0.0762317
916.334	-0.0773216
918.263	-0.0777424
920.192	-0.0779076
922.121	-0.0780609
924.05	-0.078392
925.979	-0.0789645
927.908	-0.0791615
929.838	-0.0790691
931.767	-0.0797094
933.696	-0.0809091
935.625	-0.0815038
937.554	-0.0813835
939.483	-0.0812364
941.412	-0.0814457
943.341	-0.0818234
945.271	-0.0822168
947.2	-0.0827285
949.129	-0.0829542
951.058	-0.0830503
952.987	-0.0836063
954.916	-0.0838521
956.845	-0.0834875
958.774	-0.0833057
960.704	-0.0830596
962.633	-0.0825586
964.562	-0.0824676
966.491	-0.0824746
968.42	-0.0819221
970.349	-0.0812601
972.278	-0.0808786
974.207	-0.0804973
976.137	-0.0798257
978.066	-0.0787122
979.995	-0.0772898
981.924	-0.0760394
983.853	-0.0750985
985.782	-0.0737804
987.711	-0.071663
989.64	-0.0688956
991.57	-0.0653159
993.499	-0.0611312
995.428	-0.0567224
997.357	-0.0516102
999.286	-0.045245
1001.22	-0.0376427
1003.14	-0.0290194
1005.07	-0.0190863
1007	-0.00734108
1008.93	0.00612884
1010.86	0.0214093
1012.79	0.0387266
1014.72	0.0578217
1016.65	0.0789203
1018.58	0.10207
1020.51	0.126487
1022.44	0.152625
1024.36	0.181356
1026.29	0.211562
1028.22	0.241853
1030.15	0.27303
1032.08	0.305924
1034.01	0.3398
1035.94	0.374388
1037.87	0.408514
1039.8	0.44138
1041.73	0.474302
1043.66	0.507247
1045.58	0.53923
1047.51	0.570747
1049.44	0.604063
1051.37	0.636929
1053.3	0.66622
1055.23	0.695546
1057.16	0.725225
1059.09	0.753765
1061.02	0.781972
1062.95	0.810632
1064.88	0.838921
1066.81	0.862553
1068.73	0.884464
1070.66	0.906939
1072.59	0.925449
1074.52	0.941806
1076.45	0.959483
1078.38	0.976129
1080.31	0.989653
1082.24	1.00158
1084.17	1.00914
1086.1	1.01352
1088.03	1.01759
1089.95	1.01576
1091.88	1.00947
1093.81	1.00155
1095.74	0.990406
1097.67	0.973795
1099.6	0.951191
1101.53	0.924874
1103.46	0.89333
1105.39	0.857429
1107.32	0.815404
1109.25	0.765999
1111.18	0.714413
1113.1	0.661905
1115.03	0.608827
1116.96	0.556855
1118.89	0.507308
1120.82	0.461632
1122.75	0.42115
1124.68	0.386215
1126.61	0.355959
1128.54	0.329917
1130.47	0.307554
1132.4	0.288496
1134.32	0.272579
1136.25	0.25923
1138.18	0.248044
1140.11	0.238417
1142.04	0.23027
1143.97	0.223555
1145.9	0.217613
1147.83	0.212405
1149.76	0.207866
1151.69	0.203872
1153.62	0.200462
1155.55	0.197299
1157.47	0.194096
1159.4	0.191006
1161.33	0.188099
1163.26	0.184984
1165.19	0.182059
1167.12	0.179529
1169.05	0.176657
1170.98	0.173691
1172.91	0.170906
1174.84	0.16798
1176.77	0.165004
1178.69	0.162274
1180.62	0.159751
1182.55	0.157139
1184.48	0.154615
1186.41	0.152316
1188.34	0.150254
1190.27	0.148423
1192.2	0.14629
1194.13	0.143916
1196.06	0.141908
1197.99	0.140028
1199.91	0.137774
1201.84	0.135455
1203.77	0.133205
1205.7	0.130674
1207.63	0.127945
1209.56	0.125108
1211.49	0.122379
1213.42	0.119718
1215.35	0.116794
1217.28	0.11405
1219.21	0.111505
1221.14	0.108784
1223.06	0.106067
1224.99	0.103345
1226.92	0.100487
1228.85	0.0977922
1230.78	0.0956147
1232.71	0.0936225
1234.64	0.0915407
1236.57	0.0895566
1238.5	0.0875731
1240.43	0.0854655
1242.36	0.0832963
1244.28	0.0812082
1246.21	0.0790189
1248.14	0.0765322
1250.07	0.0740806
1252	0.0716204
1253.93	0.0687321
1255.86	0.0652617
1257.79	0.0612363
1259.72	0.0565085
1261.65	0.0509557
1263.58	0.0448325
1265.51	0.0384052
1267.43	0.0322035
1269.36	0.0265425
1271.29	0.0212655
1273.22	0.0165647
1275.15	0.0125158
1277.08	0.00894885
1279.01	0.00574348
1280.94	0.00268832
1282.87	-0.000122756
1284.8	-0.00235758
1286.73	-0.00414566
1288.65	-0.00604683
1290.58	-0.00809299
1292.51	-0.00966394
1294.44	-0.0107636
1296.37	-0.0121772
1298.3	-0.0139242
1300.23	-0.0152418
1302.16	-0.0161985
1304.09	-0.0172947
1306.02	-0.0184514
1307.95	-0.0193935
1309.87	-0.0200972
1311.8	-0.0210096
1313.73	-0.0222637
1315.66	-0.0231851
1317.59	-0.0237791
1319.52	-0.0246925
1321.45	-0.0256841
1323.38	-0.026318
1325.31	-0.0271081
1327.24	-0.0283484
1329.17	-0.0293327
1331.1	-0.0297726
1333.02	-0.0302302
1334.95	-0.0308532
1336.88	-0.031422
1338.81	-0.0320743
1340.74	-0.03287
1342.67	-0.0337178
1344.6	-0.0345672
1346.53	-0.0351299
1348.46	-0.0355157
1350.39	-0.0360098
1352.32	-0.0363671
1354.24	-0.0366623
1356.17	-0.0372549
1358.1	-0.0379656
1360.03	-0.0385109
1361.96	-0.0387209
1363.89	-0.038797
1365.82	-0.0394719
1367.75	-0.0405155
1369.68	-0.0411677
1371.61	-0.0415128
1373.54	-0.0418211
1375.47	-0.0421793
1377.39	-0.0427667
1379.32	-0.0431742
1381.25	-0.0433136
1383.18	-0.0435705
1385.11	-0.0440654
1387.04	-0.044674
1388.97	-0.0450825
1390.9	-0.0454979
1392.83	-0.0460112
1394.76	-0.0463981
1396.69	-0.0468205
1398.61	-0.0470903
1400.54	-0.0471378
1402.47	-0.0474617
1404.4	-0.0478315
1406.33	-0.0480021
1408.26	-0.0484485
1410.19	-0.0491558
1412.12	-0.0496631
1414.05	-0.0498358
1415.98	-0.0496665
1417.91	-0.0495263
1419.83	-0.0502512
1421.76	-0.0509978
1423.69	-0.0513546
1425.62	-0.0515018
1427.55	-0.0517194
1429.48	-0.0521561
1431.41	-0.0523157
1433.34	-0.0527386
1435.27	-0.0538065
1437.2	-0.0539474
1439.13	-0.0534502
1441.06	-0.0534632
1442.98	-0.0535667
1444.91	-0.0539532
1446.84	-0.0545256
1448.77	-0.0548845
1450.7	-0.0551507
1452.63	-0.0553546
1454.56	-0.05565
1456.49	-0.0560278
1458.42	-0.0560953
1460.35	-0.0565234
1462.28	-0.0570916
1464.2	-0.0575107
1466.13	-0.0578408
1468.06	-0.0581759
1469.99	-0.058603
1471.92	-0.0590177
1473.85	-0.0592173
1475.78	-0.0595078
1477.71	-0.0597614
1479.64	-0.0599367
1481.57	-0.0601445
1483.5	-0.0604891
1485.43	-0.0609861
1487.35	-0.0613259
1489.28	-0.0613123
1491.21	-0.0614762
1493.14	-0.0620911
1495.07	-0.0628222
1497	-0.0629957
1498.93	-0.062865
1500.86	-0.0633273
1502.79	-0.0637467
1504.72	-0.0638531
1506.65	-0.0639947
1508.57	-0.0642232
1510.5	-0.0644026
1512.43	-0.0648005
1514.36	-0.0653659
1516.29	-0.0656827
1518.22	-0.0658274
1520.15	-0.0663839
1522.08	-0.0665077
1524.01	-0.0661567
1525.94	-0.0663789
1527.87	-0.0667914
1529.8	-0.0673907
1531.72	-0.0680363
1533.65	-0.0677409
1535.58	-0.0673562
1537.51	-0.0680416
1539.44	-0.0692177
1541.37	-0.0690888
1543.3	-0.0688373
1545.23	-0.0690592
1547.16	-0.0693955
1549.09	-0.0698395
1551.02	-0.0699576
1552.94	-0.0698125
1554.87	-0.0700122
1556.8	-0.0705644
1558.73	-0.0712919
1560.66	-0.0714067
1562.59	-0.0716371
1564.52	-0.0720806
1566.45	-0.0724216
1568.38	-0.0728205
1570.31	-0.0726144
1572.24	-0.0721178
1574.16	-0.0725189
1576.09	-0.0732444
1578.02	-0.073254
1579.95	-0.0734739
1581.88	-0.073906
1583.81	-0.0741203
1585.74	-0.074178
1587.67	-0.0742385
1589.6	-0.0743775
1591.53	-0.0747106
1593.46	-0.0751197
1595.39	-0.0753041
1597.31	-0.0752655
1599.24	-0.0753567
1601.17	-0.0755604
1603.1	-0.0755525
1605.03	-0.0755232
1606.96	-0.075706
1608.89	-0.0760761
1610.82	-0.0762903
1612.75	-0.0761498
1614.68	-0.07649
1616.61	-0.0772176
1618.53	-0.0768276
1620.46	-0.0768658
1622.39	-0.0774121
1624.32	-0.0772312
1626.25	-0.0773628
1628.18	-0.0777308
1630.11	-0.0774961
1632.04	-0.0776505
1633.97	-0.0781944
1635.9	-0.078111
1637.83	-0.0781467
1639.76	-0.0784331
1641.68	-0.0785062
1643.61	-0.0789705
1645.54	-0.0797944
1647.47	-0.0794356
1649.4	-0.0790897
1651.33	-0.0803361
1653.26	-0.0819779
1655.19	-0.0806302
1657.12	-0.0801376
1659.05	-0.0805374
1660.98	-0.0811502
1662.9	-0.0812429
1664.83	-0.0807779
1666.76	-0.0810413
1668.69	-0.0820205
1670.62	-0.082157
1672.55	-0.0822949
1674.48	-0.0830198
1676.41	-0.0830335
1678.34	-0.082567
1680.27	-0.0824067
1682.2	-0.0827861
1684.12	-0.0832674
1686.05	-0.0831409
1687.98	-0.0835978
1689.91	-0.0842023
1691.84	-0.0844189
1693.77	-0.0846939
1695.7	-0.0847869
1697.63	-0.084978
1699.56	-0.0857288
1701.49	-0.0856702
1703.42	-0.085693
1705.35	-0.0859509
1707.27	-0.0858872
1709.2	-0.0863452
1711.13	-0.0870431
1713.06	-0.0871545
1714.99	-0.0871709
1716.92	-0.0876749
1718.85	-0.087651
1720.78	-0.0875758
1722.71	-0.0878095
1724.64	-0.0879932
1726.57	-0.0882683
1728.49	-0.0883351
1730.42	-0.0880201
1732.35	-0.0885191
1734.28	-0.0892366
1736.21	-0.0889539
1738.14	-0.0894143
1740.07	-0.0900632
1742	-0.0899162
1743.93	-0.0898831
1745.86	-0.0900634
1747.79	-0.0902266
1749.72	-0.0904931
1751.64	-0.0906913
1753.57	-0.0910783
1755.5	-0.0914958
1757.43	-0.0914647
1759.36	-0.0914987
1761.29	-0.0918281
1763.22	-0.0919557
1765.15	-0.0920068
1767.08	-0.0921105
1769.01	-0.0924707
1770.94	-0.0932278
1772.86	-0.0935746
1774.79	-0.0935079
1776.72	-0.0936944
1778.65	-0.093863
1780.58	-0.0939297
1782.51	-0.0940747
1784.44	-0.0941724
1786.37	-0.0940593
1788.3	-0.0942726
1790.23	-0.0949898
1792.16	-0.0952079
1794.08	-0.0950512
1796.01	-0.0954941
1797.94	-0.0957409
1799.87	-0.0954294
1801.8	-0.0952992
1803.73	-0.0955837
1805.66	-0.0957573
1807.59	-0.0958818
1809.52	-0.0963304
1811.45	-0.0966151
1813.38	-0.0965758
1815.31	-0.0968167
1817.23	-0.0971362
1819.16	-0.0971146
1821.09	-0.0970388
1823.02	-0.0971451
1824.95	-0.0971699
1826.88	-0.097151
1828.81	-0.0973227
1830.74	-0.0973471
1832.67	-0.0972551
1834.6	-0.0973892
1836.53	-0.0976517
1838.45	-0.0978489
1840.38	-0.0979655
1842.31	-0.0980691
1844.24	-0.0980246
1846.17	-0.0978062
1848.1	-0.0976758
1850.03	-0.0977585
1851.96	-0.0980317
1853.89	-0.0981118
1855.82	-0.0980055
1857.75	-0.0981749
1859.68	-0.0983778
1861.6	-0.0983162
1863.53	-0.0984089
1865.46	-0.0986913
1867.39	-0.0987639
1869.32	-0.0987455
1871.25	-0.0989346
1873.18	-0.0990241
1875.11	-0.0989313
1877.04	-0.0989495
1878.97	-0.0991125
1880.9	-0.0992821
1882.82	-0.0995807
1884.75	-0.0999254
1886.68	-0.0999989
1888.61	-0.0999924
1890.54	-0.10028
1892.47	-0.10083
1894.4	-0.101359
1896.33	-0.101411
1898.26	-0.101308
1900.19	-0.101603
1902.12	-0.101798
1904.05	-0.1019
1905.97	-0.102363
1907.9	-0.102635
1909.83	-0.102651
1911.76	-0.102973
1913.69	-0.10346
1915.62	-0.10397
1917.55	-0.104332
1919.48	-0.104531
1921.41	-0.104977
1923.34	-0.105345
1925.27	-0.105355
1927.19	-0.105515
1929.12	-0.105943
1931.05	-0.106254
1932.98	-0.106319
1934.91	-0.106498
1936.84	-0.106882
1938.77	-0.107329
1940.7	-0.107815
1942.63	-0.107841
1944.56	-0.107597
1946.49	-0.107928
1948.41	-0.108245
1950.34	-0.108221
1952.27	-0.108479
1954.2	-0.108786
1956.13	-0.108901
1958.06	-0.109113
1959.99	-0.109284
1961.92	-0.109397
1963.85	-0.109599
1965.78	-0.109856
1967.71	-0.110165
1969.64	-0.110371
1971.56	-0.110463
1973.49	-0.110639
1975.42	-0.110866
1977.35	-0.11094
1979.28	-0.110874
1981.21	-0.11094
1983.14	-0.11114
1985.07	-0.111295
1987	-0.111462
1988.93	-0.111645
1990.86	-0.111888
1992.78	-0.112226
1994.71	-0.112446
1996.64	-0.112592
1998.57	-0.112746
2000.5	-0.112911
2002.43	-0.113199
2004.36	-0.113443
2006.29	-0.113468
2008.22	-0.113542
2010.15	-0.113806
2012.08	-0.114035
2014.01	-0.114343
2015.93	-0.114893
2017.86	-0.115089
2019.79	-0.114876
2021.72	-0.115037
2023.65	-0.115405
2025.58	-0.115587
2027.51	-0.11581
2029.44	-0.115962
2031.37	-0.116092
2033.3	-0.116501
2035.23	-0.116927
2037.15	-0.117301
2039.08	-0.117762
2041.01	-0.118048
2042.94	-0.118168
2044.87	-0.118411
2046.8	-0.118664
2048.73	-0.118837
2050.66	-0.119132
2052.59	-0.119508
2054.52	-0.119763
2056.45	-0.119867
2058.37	-0.119971
2060.3	-0.120277
2062.23	-0.120597
2064.16	-0.120759
2066.09	-0.121093
2068.02	-0.121571
2069.95	-0.121894
2071.88	-0.122184
2073.81	-0.122471
2075.74	-0.12262
2077.67	-0.122717
2079.6	-0.122984
2081.52	-0.123474
2083.45	-0.123895
2085.38	-0.124057
2087.31	-0.124209
2089.24	-0.124584
2091.17	-0.124934
2093.1	-0.124939
2095.03	-0.124998
2096.96	-0.1254
2098.89	-0.125675
2100.82	-0.125812
2102.74	-0.126061
2104.67	-0.12621
2106.6	-0.126388
2108.53	-0.126767
2110.46	-0.126981
2112.39	-0.126896
2114.32	-0.126924
2116.25	-0.127362
2118.18	-0.127797
2120.11	-0.127896
2122.04	-0.128036
2123.97	-0.128331
2125.89	-0.128554
2127.82	-0.128751
2129.75	-0.128958
2131.68	-0.12912
2133.61	-0.129231
2135.54	-0.129414
2137.47	-0.129769
2139.4	-0.130032
2141.33	-0.130141
2143.26	-0.130381
2145.19	-0.130669
2147.11	-0.130866
2149.04	-0.13104
2150.97	-0.131074
2152.9	-0.1311
2154.83	-0.131443
2156.76	-0.131801
2158.69	-0.131891
2160.62	-0.132072
2162.55	-0.132429
2164.48	-0.132667
2166.41	-0.132745
2168.33	-0.132786
2170.26	-0.132899
2172.19	-0.133107
2174.12	-0.133422
2176.05	-0.133691
2177.98	-0.133749
2179.91	-0.133888
2181.84	-0.134098
2183.77	-0.134108
2185.7	-0.13419
2187.63	-0.134436
2189.56	-0.134645
2191.48	-0.134914
2193.41	-0.13522
2195.34	-0.135362
2197.27	-0.135543
2199.2	-0.135886
2201.13	-0.135956
2203.06	-0.135955
2204.99	-0.136319
2206.92	-0.136557
2208.85	-0.136566
2210.78	-0.136646
2212.7	-0.136651
2214.63	-0.136813
2216.56	-0.137244
2218.49	-0.137504
2220.42	-0.137504
2222.35	-0.137472
2224.28	-0.137726
2226.21	-0.138214
2228.14	-0.138332
2230.07	-0.138207
2232	-0.138403
2233.93	-0.138575
2235.85	-0.138432
2237.78	-0.138377
2239.71	-0.13863
2241.64	-0.139078
2243.57	-0.139502
2245.5	-0.139731
2247.43	-0.139808
2249.36	-0.139897
2251.29	-0.139987
2253.22	-0.140064
2255.15	-0.140297
2257.07	-0.140483
2259	-0.140496
2260.93	-0.140603
2262.86	-0.140719
2264.79	-0.140853
2266.72	-0.141008
2268.65	-0.140935
2270.58	-0.140922
2272.51	-0.141142
2274.44	-0.141394
2276.37	-0.141706
2278.29	-0.141931
2280.22	-0.142019
2282.15	-0.142346
2284.08	-0.142808
2286.01	-0.142988
2287.94	-0.143098
2289.87	-0.143226
2291.8	-0.143105
2293.73	-0.142902
2295.66	-0.142755
2297.59	-0.14281
2299.52	-0.143127
2301.44	-0.143467
2303.37	-0.143644
2305.3	-0.143084
2307.23	-0.142304
2309.16	-0.142544
2311.09	-0.142812
2313.02	-0.142512
2314.95	-0.142606
2316.88	-0.143089
2318.81	-0.143742
2320.74	-0.143908
2322.66	-0.143413
2324.59	-0.142765
2326.52	-0.141752
2328.45	-0.141722
2330.38	-0.142742
2332.31	-0.142932
2334.24	-0.143059
2336.17	-0.143245
2338.1	-0.142855
2340.03	-0.142897
2341.96	-0.143704
2343.89	-0.144492
2345.81	-0.144274
2347.74	-0.14438
2349.67	-0.145607
2351.6	-0.146401
2353.53	-0.145651
2355.46	-0.145915
2357.39	-0.147023
2359.32	-0.14591
2361.25	-0.145104
2363.18	-0.14672
2365.11	-0.147598
2367.03	-0.146803
2368.96	-0.147028
2370.89	-0.147663
2372.82	-0.147694
2374.75	-0.14874
2376.68	-0.150345
2378.61	-0.151086
2380.54	-0.151276
2382.47	-0.151374
2384.4	-0.151518
2386.33	-0.151864
2388.26	-0.15236
2390.18	-0.15275
2392.11	-0.153001
2394.04	-0.153456
2395.97	-0.153849
2397.9	-0.1538
2399.83	-0.153878
2401.76	-0.154137
2403.69	-0.154128
2405.62	-0.154147
2407.55	-0.154426
2409.48	-0.154807
2411.4	-0.155178
2413.33	-0.155371
2415.26	-0.155333
2417.19	-0.155321
2419.12	-0.155626
2421.05	-0.156047
2422.98	-0.156141
2424.91	-0.156052
2426.84	-0.156156
2428.77	-0.15644
2430.7	-0.156731
2432.62	-0.156876
2434.55	-0.156934
2436.48	-0.15704
2438.41	-0.157134
2440.34	-0.15727
2442.27	-0.15743
2444.2	-0.157505
2446.13	-0.157666
2448.06	-0.157898
2449.99	-0.158057
2451.92	-0.158287
2453.85	-0.15865
2455.77	-0.15899
2457.7	-0.159231
2459.63	-0.159419
2461.56	-0.159556
2463.49	-0.159687
2465.42	-0.159771
2467.35	-0.15968
2469.28	-0.159792
2471.21	-0.160225
2473.14	-0.160479
2475.07	-0.160596
2476.99	-0.160706
2478.92	-0.160739
2480.85	-0.16092
2482.78	-0.161121
2484.71	-0.161262
2486.64	-0.161598
2488.57	-0.161957
2490.5	-0.162143
2492.43	-0.162122
2494.36	-0.161982
2496.29	-0.162221
2498.22	-0.162693
2500.14	-0.16268
2502.07	-0.162521
2504	-0.162817
2505.93	-0.163269
2507.86	-0.163645
2509.79	-0.163874
2511.72	-0.163902
2513.65	-0.164114
2515.58	-0.164436
2517.51	-0.164488
2519.44	-0.164561
2521.36	-0.164837
2523.29	-0.165131
2525.22	-0.165364
2527.15	-0.165479
2529.08	-0.165496
2531.01	-0.165534
2532.94	-0.165791
2534.87	-0.166197
2536.8	-0.166363
2538.73	-0.166474
2540.66	-0.166785
2542.58	-0.166916
2544.51	-0.166826
2546.44	-0.166749
2548.37	-0.166698
2550.3	-0.166915
2552.23	-0.167271
2554.16	-0.167333
2556.09	-0.167478
2558.02	-0.167871
2559.95	-0.167974
2561.88	-0.16795
2563.81	-0.168227
2565.73	-0.16856
2567.66	-0.168778
2569.59	-0.168983
2571.52	-0.16915
2573.45	-0.169267
2575.38	-0.169396
2577.31	-0.169615
2579.24	-0.16983
2581.17	-0.16979
2583.1	-0.169791
2585.03	-0.170182
2586.95	-0.170541
2588.88	-0.170634
2590.81	-0.170728
2592.74	-0.170846
2594.67	-0.170875
2596.6	-0.171029
2598.53	-0.171547
2600.46	-0.171934
2602.39	-0.171837
2604.32	-0.171796
2606.25	-0.171952
2608.18	-0.172104
2610.1	-0.172279
2612.03	-0.172377
2613.96	-0.172578
2615.89	-0.172928
2617.82	-0.173173
2619.75	-0.173538
2621.68	-0.174025
2623.61	-0.174235
2625.54	-0.174108
2627.47	-0.173976
2629.4	-0.174286
2631.32	-0.174706
2633.25	-0.174677
2635.18	-0.174569
2637.11	-0.174574
2639.04	-0.174579
2640.97	-0.17485
2642.9	-0.175245
2644.83	-0.17549
2646.76	-0.175692
2648.69	-0.175756
2650.62	-0.175713
2652.54	-0.175985
2654.47	-0.176391
2656.4	-0.176502
2658.33	-0.176737
2660.26	-0.17727
2662.19	-0.177537
2664.12	-0.177469
2666.05	-0.177464
2667.98	-0.177703
2669.91	-0.177913
2671.84	-0.177873
2673.77	-0.177851
2675.69	-0.178064
2677.62	-0.178497
2679.55	-0.178857
2681.48	-0.178951
2683.41	-0.179065
2685.34	-0.179174
2687.27	-0.179204
2689.2	-0.179497
2691.13	-0.179944
2693.06	-0.180143
2694.99	-0.180178
2696.91	-0.180183
2698.84	-0.180146
2700.77	-0.180432
2702.7	-0.180893
2704.63	-0.180978
2706.56	-0.181324
2708.49	-0.181979
2710.42	-0.182041
2712.35	-0.181972
2714.28	-0.181996
2716.21	-0.181776
2718.14	-0.181986
2720.06	-0.182436
2721.99	-0.182239
2723.92	-0.181938
2725.85	-0.182255
2727.78	-0.182811
2729.71	-0.183158
2731.64	-0.183319
2733.57	-0.183246
2735.5	-0.183148
2737.43	-0.183495
2739.36	-0.184032
2741.28	-0.184291
2743.21	-0.184281
2745.14	-0.184338
2747.07	-0.184601
2749	-0.18451
2750.93	-0.184287
2752.86	-0.184773
2754.79	-0.185358
2756.72	-0.185397
2758.65	-0.185349
2760.58	-0.185459
2762.51	-0.185589
2764.43	-0.185691
2766.36	-0.185981
2768.29	-0.186514
2770.22	-0.186876
2772.15	-0.186735
2774.08	-0.186497
2776.01	-0.186833
2777.94	-0.187319
2779.87	-0.187567
2781.8	-0.187975
2783.73	-0.188127
2785.65	-0.188082
2787.58	-0.188348
2789.51	-0.188289
2791.44	-0.188141
2793.37	-0.188478
2795.3	-0.188652
2797.23	-0.188595
2799.16	-0.188601
2801.09	-0.188735
2803.02	-0.189285
2804.95	-0.189853
2806.87	-0.190029
2808.8	-0.190104
2810.73	-0.190052
2812.66	-0.190078
2814.59	-0.190615
2816.52	-0.190931
2818.45	-0.19055
2820.38	-0.19055
2822.31	-0.191251
2824.24	-0.191617
2826.17	-0.191539
2828.1	-0.191668
2830.02	-0.191876
2831.95	-0.191976
2833.88	-0.192205
2835.81	-0.192344
2837.74	-0.192273
2839.67	-0.192428
2841.6	-0.192749
2843.53	-0.192861
2845.46	-0.192867
2847.39	-0.192987
2849.32	-0.193254
2851.24	-0.193601
2853.17	-0.193849
2855.1	-0.193903
2857.03	-0.194061
2858.96	-0.194438
2860.89	-0.194555
2862.82	-0.194477
2864.75	-0.194661
2866.68	-0.194889
2868.61	-0.19504
2870.54	-0.195276
2872.47	-0.195446
2874.39	-0.195503
2876.32	-0.195612
2878.25	-0.19584
2880.18	-0.195933
2882.11	-0.195934
2884.04	-0.196333
2885.97	-0.19655
2887.9	-0.196364
2889.83	-0.196857
2891.76	-0.197303
2893.69	-0.196931
2895.61	-0.197082
2897.54	-0.197582
2899.47	-0.197534
2901.4	-0.197591
2903.33	-0.197885
2905.26	-0.198032
2907.19	-0.198122
2909.12	-0.198188
2911.05	-0.198041
2912.98	-0.197789
2914.91	-0.198085
2916.83	-0.198612
2918.76	-0.198647
2920.69	-0.198838
2922.62	-0.199401
2924.55	-0.199943
2926.48	-0.200426
2928.41	-0.20034
2930.34	-0.200189
2932.27	-0.200881
2934.2	-0.201359
2936.13	-0.201007
2938.06	-0.200534
2939.98	-0.200226
2941.91	-0.20037
2943.84	-0.200778
2945.77	-0.201022
2947.7	-0.201408
2949.63	-0.201815
2951.56	-0.201973
2953.49	-0.202131
2955.42	-0.202421
2957.35	-0.202749
2959.28	-0.202889
2961.2	-0.202951
2963.13	-0.203109
2965.06	-0.203332
2966.99	-0.203677
2968.92	-0.20377
2970.85	-0.203507
2972.78	-0.203308
2974.71	-0.203276
2976.64	-0.203629
2978.57	-0.20409
2980.5	-0.204098
2982.43	-0.204124
2984.35	-0.204416
2986.28	-0.204639
2988.21	-0.204892
2990.14	-0.204969
2992.07	-0.204763
2994	-0.204979
2995.93	-0.205383
2997.86	-0.20541
2999.79	-0.205706
3001.72	-0.206022
3003.65	-0.205784
3005.57	-0.205871
3007.5	-0.206431
3009.43	-0.206754
3011.36	-0.206584
3013.29	-0.206288
3015.22	-0.206582
3017.15	-0.206826
3019.08	-0.206504
3021.01	-0.206645
3022.94	-0.207403
3024.87	-0.207995
3026.79	-0.208006
3028.72	-0.20809
3030.65	-0.208694
3032.58	-0.208523
3034.51	-0.207853
3036.44	-0.208153
3038.37	-0.208594
3040.3	-0.208382
3042.23	-0.208067
3044.16	-0.208077
3046.09	-0.208563
3048.02	-0.209245
3049.94	-0.209563
3051.87	-0.209317
3053.8	-0.208988
3055.73	-0.209053
3057.66	-0.209696
3059.59	-0.210554
3061.52	-0.210539
3063.45	-0.210099
3065.38	-0.210218
3067.31	-0.210049
3069.24	-0.210015
3071.16	-0.211269
3073.09	-0.212476
3075.02	-0.212414
3076.95	-0.21155
3078.88	-0.210778
3080.81	-0.210986
3082.74	-0.211548
3084.67	-0.211327
3086.6	-0.211206
3088.53	-0.211731
3090.46	-0.212133
3092.39	-0.212659
3094.31	-0.213378
3096.24	-0.213602
3098.17	-0.213362
3100.1	-0.213047
3102.03	-0.213398
3103.96	-0.214344
3105.89	-0.214474
3107.82	-0.213941
3109.75	-0.213956
3111.68	-0.214216
3113.61	-0.214113
3115.53	-0.213942
3117.46	-0.21388
3119.39	-0.213944
3121.32	-0.214556
3123.25	-0.215473
3125.18	-0.216107
3127.11	-0.216695
3129.04	-0.216822
3130.97	-0.216022
3132.9	-0.215416
3134.83	-0.215669
3136.75	-0.216269
3138.68	-0.216813
3140.61	-0.216879
3142.54	-0.216591
3144.47	-0.216828
3146.4	-0.217326
3148.33	-0.217027
3150.26	-0.216439
3152.19	-0.216387
3154.12	-0.216692
3156.05	-0.217539
3157.98	-0.218605
3159.9	-0.218802
3161.83	-0.218373
3163.76	-0.218378
3165.69	-0.218565
3167.62	-0.218297
3169.55	-0.218593
3171.48	-0.219588
3173.41	-0.21974
3175.34	-0.21946
3177.27	-0.219527
3179.2	-0.219401
3181.12	-0.219224
3183.05	-0.21934
3184.98	-0.22005
3186.91	-0.220931
3188.84	-0.220825
3190.77	-0.220611
3192.7	-0.221149
3194.63	-0.221341
3196.56	-0.221364
3198.49	-0.222048
3200.42	-0.222558
3202.35	-0.222157
3204.27	-0.221401
3206.2	-0.221215
3208.13	-0.221938
3210.06	-0.223001
3211.99	-0.223339
3213.92	-0.222826
3215.85	-0.2224
3217.78	-0.222341
3219.71	-0.222552
3221.64	-0.222971
3223.57	-0.223121
3225.49	-0.223231
3227.42	-0.223568
3229.35	-0.223545
3231.28	-0.223164
3233.21	-0.223192
3235.14	-0.223797
3237.07	-0.224116
3239	-0.223902
3240.93	-0.223747
3242.86	-0.223747
3244.79	-0.224171
3246.72	-0.224809
3248.64	-0.225109
3250.57	-0.225485
3252.5	-0.225536
3254.43	-0.225126
3256.36	-0.225442
3258.29	-0.225976
3260.22	-0.225824
3262.15	-0.225806
3264.08	-0.226224
3266.01	-0.226477
3267.94	-0.226375
3269.86	-0.22611
3271.79	-0.225903
3273.72	-0.225894
3275.65	-0.226337
3277.58	-0.226781
3279.51	-0.226911
3281.44	-0.22776
3283.37	-0.228344
3285.3	-0.227632
3287.23	-0.227738
3289.16	-0.228155
3291.08	-0.227601
3293.01	-0.22787
3294.94	-0.228433
3296.87	-0.228174
3298.8	-0.228111
3300.73	-0.228103
3302.66	-0.227809
3304.59	-0.227585
3306.52	-0.22757
3308.45	-0.228086
3310.38	-0.22927
3312.31	-0.230353
3314.23	-0.230298
3316.16	-0.229822
3318.09	-0.23022
3320.02	-0.230594
3321.95	-0.229927
3323.88	-0.22941
3325.81	-0.229953
3327.74	-0.230268
3329.67	-0.230032
3331.6	-0.230548
3333.53	-0.231107
3335.45	-0.230761
3337.38	-0.230449
3339.31	-0.230675
3341.24	-0.231156
3343.17	-0.231137
3345.1	-0.230714
3347.03	-0.231205
3348.96	-0.232214
3350.89	-0.232601
3352.82	-0.23244
3354.75	-0.232672
3356.68	-0.233511
3358.6	-0.233305
3360.53	-0.232958
3362.46	-0.234083
3364.39	-0.234272
3366.32	-0.233157
3368.25	-0.232589
3370.18	-0.232414
3372.11	-0.232794
3374.04	-0.233223
3375.97	-0.233177
3377.9	-0.233327
3379.82	-0.233372
3381.75	-0.233602
3383.68	-0.234401
3385.61	-0.23512
3387.54	-0.235431
3389.47	-0.235026
3391.4	-0.234382
3393.33	-0.234156
3395.26	-0.234104
3397.19	-0.233957
3399.12	-0.233629
3401.04	-0.234006
3402.97	-0.235172
3404.9	-0.235383
3406.83	-0.234719
3408.76	-0.234653
3410.69	-0.235174
3412.62	-0.235764
3414.55	-0.236388
3416.48	-0.236886
3418.41	-0.236953
3420.34	-0.236832
3422.27	-0.236618
3424.19	-0.236239
3426.12	-0.236397
3428.05	-0.236755
3429.98	-0.236584
3431.91	-0.236478
3433.84	-0.236251
3435.77	-0.235773
3437.7	-0.236082
3439.63	-0.237344
3441.56	-0.238676
3443.49	-0.238806
3445.41	-0.238066
3447.34	-0.238182
3449.27	-0.238871
3451.2	-0.239212
3453.13	-0.239429
3455.06	-0.239354
3456.99	-0.23899
3458.92	-0.239016
3460.85	-0.239655
3462.78	-0.239905
3464.71	-0.239303
3466.64	-0.238879
3468.56	-0.238614
3470.49	-0.238521
3472.42	-0.239279
3474.35	-0.239802
3476.28	-0.239596
3478.21	-0.239435
3480.14	-0.239309
3482.07	-0.239582
3484	-0.240042
3485.93	-0.240317
3487.86	-0.240918
3489.78	-0.241542
3491.71	-0.242181
3493.64	-0.24239
3495.57	-0.241618
3497.5	-0.241584
3499.43	-0.242001
3501.36	-0.241324
3503.29	-0.241066
3505.22	-0.241605
3507.15	-0.241569
3509.08	-0.241422
3511	-0.241379
3512.93	-0.24136
3514.86	-0.242055
3516.79	-0.242912
3518.72	-0.242825
3520.65	-0.242639
3522.58	-0.243086
3524.51	-0.243655
3526.44	-0.244623
3528.37	-0.245533
3530.3	-0.245155
3532.23	-0.244368
3534.15	-0.244629
3536.08	-0.245194
3538.01	-0.24413
3539.94	-0.242982
3541.87	-0.243659
3543.8	-0.244139
3545.73	-0.243944
3547.66	-0.245008
3549.59	-0.246551
3551.52	-0.246589
3553.45	-0.245146
3555.37	-0.245511
3557.3	-0.246754
3559.23	-0.245272
3561.16	-0.243687
3563.09	-0.245333
3565.02	-0.24842
3566.95	-0.249363
3568.88	-0.246489
3570.81	-0.245546
3572.74	-0.247294
3574.67	-0.248213
3576.6	-0.248401
3578.52	-0.248109
3580.45	-0.245395
3582.38	-0.243223
3584.31	-0.245117
3586.24	-0.249284
3588.17	-0.250534
3590.1	-0.248692
3592.03	-0.249103
3593.96	-0.250925
3595.89	-0.250756
3597.82	-0.250115
3599.74	-0.250637
3601.67	-0.249861
3603.6	-0.247197
3605.53	-0.246675
3607.46	-0.249405
3609.39	-0.251175
3611.32	-0.252549
3613.25	-0.255309
3615.18	-0.256012
3617.11	-0.255858
3619.04	-0.256921
3620.97	-0.256289
3622.89	-0.25277
3624.82	-0.250736
3626.75	-0.253844
3628.68	-0.256865
3630.61	-0.253938
3632.54	-0.253436
3634.47	-0.254259
3636.4	-0.253578
3638.33	-0.252786
3640.26	-0.253013
3642.19	-0.253579
3644.11	-0.254258
3646.04	-0.258288
3647.97	-0.266879
3649.9	-0.266126
3651.83	-0.258114
3653.76	-0.257589
3655.69	-0.259596
3657.62	-0.256714
3659.55	-0.251771
3661.48	-0.250135
3663.41	-0.252319
3665.33	-0.254301
3667.26	-0.255372
3669.19	-0.25812
3671.12	-0.258215
3673.05	-0.25892
3674.98	-0.262648
3676.91	-0.258512
3678.84	-0.255428
3680.77	-0.256988
3682.7	-0.257189
3684.63	-0.257328
3686.56	-0.256183
3688.48	-0.251663
3690.41	-0.250825
3692.34	-0.251717
3694.27	-0.251911
3696.2	-0.254514
3698.13	-0.25735
3700.06	-0.259791
3701.99	-0.261394
3703.92	-0.258185
3705.85	-0.255678
3707.78	-0.260754
3709.7	-0.269806
3711.63	-0.270362
3713.56	-0.265417
3715.49	-0.264059
3717.42	-0.263289
3719.35	-0.262106
3721.28	-0.261862
3723.21	-0.262575
3725.14	-0.263316
3727.07	-0.263023
3729	-0.264035
3730.93	-0.26807
3732.85	-0.271553
3734.78	-0.271263
3736.71	-0.268401
3738.64	-0.263352
3740.57	-0.262503
3742.5	-0.268741
3744.43	-0.274548
3746.36	-0.273677
3748.29	-0.277235
3750.22	-0.282813
3752.15	-0.27308
3754.07	-0.262035
3756	-0.264214
3757.93	-0.270111
3759.86	-0.267575
3761.79	-0.264171
3763.72	-0.263115
3765.65	-0.259572
3767.58	-0.260381
3769.51	-0.266589
3771.44	-0.269453
3773.37	-0.268813
3775.29	-0.267782
3777.22	-0.267007
3779.15	-0.267432
3781.08	-0.26757
3783.01	-0.266655
3784.94	-0.265607
3786.87	-0.264434
3788.8	-0.264714
3790.73	-0.266186
3792.66	-0.267249
3794.59	-0.26832
3796.52	-0.268023
3798.44	-0.267503
3800.37	-0.269377
3802.3	-0.269375
3804.23	-0.271048
3806.16	-0.276864
3808.09	-0.275429
3810.02	-0.265754
3811.95	-0.26251
3813.88	-0.269549
3815.81	-0.274387
3817.74	-0.27174
3819.66	-0.276748
3821.59	-0.280151
3823.52	-0.278845
3825.45	-0.280666
3827.38	-0.274845
3829.31	-0.26659
3831.24	-0.265154
3833.17	-0.264098
3835.1	-0.260161
3837.03	-0.257454
3838.96	-0.263925
3840.89	-0.27307
3842.81	-0.275368
3844.74	-0.273433
3846.67	-0.269651
3848.6	-0.269705
3850.53	-0.277381
3852.46	-0.284726
3854.39	-0.279018
3856.32	-0.275707
3858.25	-0.275487
3860.18	-0.273663
3862.11	-0.273147
3864.03	-0.272297
3865.96	-0.272091
3867.89	-0.279114
3869.82	-0.284272
3871.75	-0.280299
3873.68	-0.275454
3875.61	-0.268349
3877.54	-0.266941
3879.47	-0.27266
3881.4	-0.272282
3883.33	-0.267773
3885.25	-0.267061
3887.18	-0.268146
3889.11	-0.270501
3891.04	-0.272688
3892.97	-0.273992
3894.9	-0.275384
3896.83	-0.27802
3898.76	-0.285122
3900.69	-0.293573
3902.62	-0.29329
3904.55	-0.284001
3906.48	-0.276319
3908.4	-0.273553
3910.33	-0.270539
3912.26	-0.269091
3914.19	-0.270682
3916.12	-0.270841
3918.05	-0.273535
3919.98	-0.279113
3921.91	-0.279558
3923.84	-0.278712
3925.77	-0.279478
3927.7	-0.277771
3929.62	-0.272582
3931.55	-0.265114
3933.48	-0.263222
3935.41	-0.268951
3937.34	-0.273069
3939.27	-0.273513
3941.2	-0.274332
3943.13	-0.276386
3945.06	-0.281805
3946.99	-0.285611
3948.92	-0.281295
3950.85	-0.278485
3952.77	-0.279894
3954.7	-0.278634
3956.63	-0.274248
3958.56	-0.265917
3960.49	-0.264925
3962.42	-0.274769
3964.35	-0.276241
3966.28	-0.274064
3968.21	-0.279536
3970.14	-0.28035
3972.07	-0.275661
3973.99	-0.272684
3975.92	-0.27131
3977.85	-0.274062
3979.78	-0.27797
3981.71	-0.278012
3983.64	-0.277001
3985.57	-0.275806
3987.5	-0.271762
3989.43	-0.268608
3991.36	-0.270803
3993.29	-0.275733
3995.22	-0.280604
3997.14	-0.281532
